s(1/A)      f0_exact        f0_model        f0_exact-f0_model
0.000000  1.0000000000e+00  1.0000000000e+00  0.000e+00
0.010000  9.9779264447e-01  9.9779264943e-01  -4.957e-09
0.020000  9.9121425285e-01  9.9121427018e-01  -1.733e-08
0.030000  9.8039394156e-01  9.8039397232e-01  -3.077e-08
0.040000  9.6554068782e-01  9.6554072580e-01  -3.798e-08
0.050000  9.4693449429e-01  9.4693452837e-01  -3.407e-08
0.060000  9.2491494144e-01  9.2491496033e-01  -1.889e-08
0.070000  8.9986792476e-01  8.9986792195e-01  2.809e-09
0.080000  8.7221144521e-01  8.7221142198e-01  2.323e-08
0.090000  8.4238130930e-01  8.4238127453e-01  3.478e-08
0.100000  8.1081750998e-01  8.1081747680e-01  3.318e-08
0.110000  7.7795191973e-01  7.7795190055e-01  1.918e-08
0.120000  7.4419775451e-01  7.4419775629e-01  -1.780e-09
0.130000  7.0994108449e-01  7.0994110626e-01  -2.177e-08
0.140000  6.7553449431e-01  6.7553452773e-01  -3.342e-08
0.150000  6.4129284600e-01  6.4129287870e-01  -3.270e-08
0.160000  6.0749098146e-01  6.0749100164e-01  -2.018e-08
0.170000  5.7436312022e-01  5.7436312091e-01  -6.903e-10
0.180000  5.4210366306e-01  5.4210364436e-01  1.870e-08
0.190000  5.1086909562e-01  5.1086906436e-01  3.125e-08
0.200000  4.8078069513e-01  4.8078066222e-01  3.291e-08
0.210000  4.5192776847e-01  4.5192774498e-01  2.348e-08
0.220000  4.2437118592e-01  4.2437117943e-01  6.491e-09
0.230000  3.9814701627e-01  3.9814702855e-01  -1.227e-08
0.240000  3.7327011060e-01  3.7327013736e-01  -2.675e-08
0.250000  3.4973752161e-01  3.4973755420e-01  -3.258e-08
0.260000  3.2753168047e-01  3.2753170878e-01  -2.831e-08
0.270000  3.0662328276e-01  3.0662329838e-01  -1.562e-08
0.280000  2.8697385920e-01  2.8697385780e-01  1.398e-09
0.290000  2.6853802546e-01  2.6853800781e-01  1.766e-08
0.300000  2.5126541900e-01  2.5126539041e-01  2.859e-08
0.310000  2.3510234044e-01  2.3510230904e-01  3.139e-08
0.320000  2.1999312305e-01  2.1999309739e-01  2.566e-08
0.330000  2.0588125716e-01  2.0588124389e-01  1.327e-08
0.340000  1.9271029758e-01  1.9271029986e-01  -2.273e-09
0.350000  1.8042458209e-01  1.8042459899e-01  -1.690e-08
0.360000  1.6896978739e-01  1.6896981442e-01  -2.703e-08
0.370000  1.5829334738e-01  1.5829337780e-01  -3.042e-08
0.380000  1.4834475610e-01  1.4834478267e-01  -2.657e-08
0.390000  1.3907577526e-01  1.3907579195e-01  -1.669e-08
0.400000  1.3044056393e-01  1.3044056721e-01  -3.278e-09
0.410000  1.2239574536e-01  1.2239573481e-01  1.055e-08
0.420000  1.1490042412e-01  1.1490040231e-01  2.181e-08
0.430000  1.0791616418e-01  1.0791613594e-01  2.825e-08
0.440000  1.0140693740e-01  1.0140690863e-01  2.876e-08
0.450000  9.5339049673e-02  9.5339026143e-02  2.353e-08
0.460000  8.9681051286e-02  8.9681037458e-02  1.383e-08
0.470000  8.4403636232e-02  8.4403634519e-02  1.713e-09
0.480000  7.9479534741e-02  7.9479545189e-02  -1.045e-08
0.490000  7.4883402146e-02  7.4883422585e-02  -2.044e-08
0.500000  7.0591706630e-02  7.0591733215e-02  -2.658e-08
0.510000  6.6582617811e-02  6.6582645801e-02  -2.799e-08
0.520000  6.2835897599e-02  6.2835922232e-02  -2.463e-08
0.530000  5.9332794447e-02  5.9332811731e-02  -1.728e-08
0.540000  5.6055941738e-02  5.6055949048e-02  -7.310e-09
0.550000  5.2989260832e-02  5.2989257236e-02  3.596e-09
0.560000  5.0117869113e-02  5.0117855404e-02  1.371e-08
0.570000  4.7427993167e-02  4.7427971629e-02  2.154e-08
0.580000  4.4906887178e-02  4.4906861146e-02  2.603e-08
0.590000  4.2542756456e-02  4.2542729766e-02  2.669e-08
0.600000  4.0324686008e-02  4.0324662421e-02  2.359e-08
0.610000  3.8242573978e-02  3.8242556663e-02  1.731e-08
0.620000  3.6287069748e-02  3.6287060894e-02  8.853e-09
0.630000  3.4449516496e-02  3.4449517085e-02  -5.890e-10
0.640000  3.2721897951e-02  3.2721907708e-02  -9.756e-09
0.650000  3.1096789120e-02  3.1096806627e-02  -1.751e-08
0.660000  2.9567310728e-02  2.9567333674e-02  -2.295e-08
0.670000  2.8127087140e-02  2.8127112660e-02  -2.552e-08
0.680000  2.6770207530e-02  2.6770232572e-02  -2.504e-08
0.690000  2.5491190051e-02  2.5491211748e-02  -2.170e-08
0.700000  2.4284948823e-02  2.4284964803e-02  -1.598e-08
0.710000  2.3146763498e-02  2.3146772118e-02  -8.620e-09
0.720000  2.2072251230e-02  2.2072251708e-02  -4.784e-10
0.730000  2.1057340860e-02  2.1057333309e-02  7.550e-09
0.740000  2.0098249144e-02  2.0098234505e-02  1.464e-08
0.750000  1.9191458868e-02  1.9191438760e-02  2.011e-08
0.760000  1.8333698692e-02  1.8333675217e-02  2.347e-08
0.770000  1.7521924600e-02  1.7521900102e-02  2.450e-08
0.780000  1.6753302815e-02  1.6753279645e-02  2.317e-08
0.790000  1.6025194071e-02  1.6025174363e-02  1.971e-08
0.800000  1.5335139116e-02  1.5335124605e-02  1.451e-08
0.810000  1.4680845376e-02  1.4680837262e-02  8.114e-09
0.820000  1.4060174650e-02  1.4060173526e-02  1.124e-09
0.830000  1.3471131785e-02  1.3471137617e-02  -5.832e-09
0.840000  1.2911854223e-02  1.2911866390e-02  -1.217e-08
0.850000  1.2380602377e-02  1.2380619754e-02  -1.738e-08
0.860000  1.1875750740e-02  1.1875771821e-02  -2.108e-08
0.870000  1.1395779695e-02  1.1395802732e-02  -2.304e-08
0.880000  1.0939267944e-02  1.0939291102e-02  -2.316e-08
0.890000  1.0504885531e-02  1.0504907031e-02  -2.150e-08
0.900000  1.0091387384e-02  1.0091405636e-02  -1.825e-08
0.910000  9.6976073613e-03  9.6976210740e-03  -1.371e-08
0.920000  9.3224527380e-03  9.3224609959e-03  -8.258e-09
0.930000  8.9648991157e-03  8.9649014256e-03  -2.310e-09
0.940000  8.6239857095e-03  8.6239820126e-03  3.697e-09
0.950000  8.2988109878e-03  8.2988016412e-03  9.347e-09
0.960000  7.9885286363e-03  7.9885143670e-03  1.427e-08
0.970000  7.6923438192e-03  7.6923256564e-03  1.816e-08
0.980000  7.4095097157e-03  7.4094889079e-03  2.081e-08
0.990000  7.1393243092e-03  7.1393022323e-03  2.208e-08
1.000000  6.8811274104e-03  6.8811054740e-03  2.194e-08
1.010000  6.6342978944e-03  6.6342774523e-03  2.044e-08
1.020000  6.3982511382e-03  6.3982334082e-03  1.773e-08
1.030000  6.1724366394e-03  6.1724226368e-03  1.400e-08
1.040000  5.9563358059e-03  5.9563262933e-03  9.513e-09
1.050000  5.7494599009e-03  5.7494553558e-03  4.545e-09
1.060000  5.5513481322e-03  5.5513487339e-03  -6.017e-10
1.070000  5.3615658760e-03  5.3615715097e-03  -5.634e-09
1.080000  5.1797030232e-03  5.1797133003e-03  -1.028e-08
1.090000  5.0053724399e-03  5.0053867325e-03  -1.429e-08
1.100000  4.8382085350e-03  4.8382260205e-03  -1.749e-08
1.110000  4.6778659237e-03  4.6778856374e-03  -1.971e-08
1.120000  4.5240181831e-03  4.5240390753e-03  -2.089e-08
1.130000  4.3763566915e-03  4.3763776847e-03  -2.099e-08
1.140000  4.2345895453e-03  4.2346095899e-03  -2.004e-08
1.150000  4.0984405487e-03  4.0984586735e-03  -1.812e-08
1.160000  3.9676482695e-03  3.9676636260e-03  -1.536e-08
1.170000  3.8419651585e-03  3.8419770557e-03  -1.190e-08
1.180000  3.7211567254e-03  3.7211646555e-03  -7.930e-09
1.190000  3.6050007688e-03  3.6050044230e-03  -3.654e-09
1.200000  3.4932866568e-03  3.4932859306e-03  7.262e-10
1.210000  3.3858146529e-03  3.3858096417e-03  5.011e-09
1.220000  3.2823952854e-03  3.2823862719e-03  9.013e-09
1.230000  3.1828487576e-03  3.1828361909e-03  1.257e-08
1.240000  3.0870043943e-03  3.0869888636e-03  1.553e-08
1.250000  2.9947001240e-03  2.9946823275e-03  1.780e-08
1.260000  2.9057819928e-03  2.9057627036e-03  1.929e-08
1.270000  2.8201037094e-03  2.8200837405e-03  1.997e-08
1.280000  2.7375262170e-03  2.7375063864e-03  1.983e-08
1.290000  2.6579172930e-03  2.6578983904e-03  1.890e-08
1.300000  2.5811511718e-03  2.5811339289e-03  1.724e-08
1.310000  2.5071081917e-03  2.5070932553e-03  1.494e-08
1.320000  2.4356744621e-03  2.4356623731e-03  1.209e-08
1.330000  2.3667415514e-03  2.3667327283e-03  8.823e-09
1.340000  2.3002061934e-03  2.3002009216e-03  5.272e-09
1.350000  2.2359700109e-03  2.2359684374e-03  1.573e-09
1.360000  2.1739392561e-03  2.1739413896e-03  -2.134e-09
1.370000  2.1140245654e-03  2.1140302816e-03  -5.716e-09
1.380000  2.0561407297e-03  2.0561497807e-03  -9.051e-09
1.390000  2.0002064771e-03  2.0002185050e-03  -1.203e-08
1.400000  1.9461442682e-03  1.9461588219e-03  -1.455e-08
1.410000  1.8938801039e-03  1.8938966580e-03  -1.655e-08
1.420000  1.8433433434e-03  1.8433613188e-03  -1.798e-08
1.430000  1.7944665329e-03  1.7944853179e-03  -1.879e-08
1.440000  1.7471852438e-03  1.7472042158e-03  -1.897e-08
1.450000  1.7014379203e-03  1.7014564661e-03  -1.855e-08
1.460000  1.6571657349e-03  1.6571832703e-03  -1.754e-08
1.470000  1.6143124527e-03  1.6143284395e-03  -1.599e-08
1.480000  1.5728243026e-03  1.5728382642e-03  -1.396e-08
1.490000  1.5326498560e-03  1.5326613894e-03  -1.153e-08
1.500000  1.4937399115e-03  1.4937486971e-03  -8.786e-09
1.510000  1.4560473866e-03  1.4560531950e-03  -5.808e-09
1.520000  1.4195272152e-03  1.4195299102e-03  -2.695e-09
1.530000  1.3841362495e-03  1.3841357894e-03  4.601e-10
1.540000  1.3498331688e-03  1.3498296039e-03  3.565e-09
1.550000  1.3165783921e-03  1.3165718599e-03  6.532e-09
1.560000  1.2843339952e-03  1.2843247139e-03  9.281e-09
1.570000  1.2530636332e-03  1.2530518922e-03  1.174e-08
1.580000  1.2227324656e-03  1.2227186155e-03  1.385e-08
1.590000  1.1933070869e-03  1.1932915274e-03  1.556e-08
1.600000  1.1647554592e-03  1.1647386269e-03  1.683e-08
1.610000  1.1370468496e-03  1.1370292050e-03  1.764e-08
1.620000  1.1101517701e-03  1.1101337846e-03  1.799e-08
1.630000  1.0840419204e-03  1.0840240636e-03  1.786e-08
1.640000  1.0586901345e-03  1.0586728623e-03  1.727e-08
1.650000  1.0340703290e-03  1.0340540723e-03  1.626e-08
1.660000  1.0101574546e-03  1.0101426091e-03  1.485e-08
1.670000  9.8692744956e-04  9.8691436749e-04  1.308e-08
1.680000  9.6435719618e-04  9.6434617863e-04  1.102e-08
1.690000  9.4242447868e-04  9.4241577011e-04  8.709e-09
1.700000  9.2110794353e-04  9.2110172771e-04  6.216e-09
1.710000  9.0038706175e-04  9.0038345929e-04  3.602e-09
1.720000  8.8024209286e-04  8.8024116042e-04  9.324e-10
1.730000  8.6065405076e-04  8.6065578174e-04  -1.731e-09
1.740000  8.4160467109e-04  8.4160899783e-04  -4.327e-09
1.750000  8.2307638029e-04  8.2308317753e-04  -6.797e-09
1.760000  8.0505226610e-04  8.0506135560e-04  -9.090e-09
1.770000  7.8751604938e-04  7.8752720560e-04  -1.116e-08
1.780000  7.7045205739e-04  7.7046501392e-04  -1.296e-08
1.790000  7.5384519823e-04  7.5385965490e-04  -1.446e-08
1.800000  7.3768093652e-04  7.3769656695e-04  -1.563e-08
1.810000  7.2194527023e-04  7.2196172961e-04  -1.646e-08
1.820000  7.0662470852e-04  7.0664164152e-04  -1.693e-08
1.830000  6.9170625066e-04  6.9172329921e-04  -1.705e-08
1.840000  6.7717736590e-04  6.7719417670e-04  -1.681e-08
1.850000  6.6302597428e-04  6.6304220595e-04  -1.623e-08
1.860000  6.4924042825e-04  6.4925575793e-04  -1.533e-08
1.870000  6.3580949519e-04  6.3582362451e-04  -1.413e-08
1.880000  6.2272234072e-04  6.2273500102e-04  -1.266e-08
1.890000  6.0996851266e-04  6.0997946948e-04  -1.096e-08
1.900000  5.9753792585e-04  5.9754698249e-04  -9.057e-09
1.910000  5.8542084754e-04  5.8542784777e-04  -7.000e-09
1.920000  5.7360788346e-04  5.7361271339e-04  -4.830e-09
1.930000  5.6208996448e-04  5.6209255351e-04  -2.589e-09
1.940000  5.5085833394e-04  5.5085865481e-04  -3.209e-10
1.950000  5.3990453539e-04  5.3990260352e-04  1.932e-09
1.960000  5.2922040099e-04  5.2921627295e-04  4.128e-09
1.970000  5.1879804036e-04  5.1879181169e-04  6.229e-09
1.980000  5.0862982990e-04  5.0862163228e-04  8.198e-09
1.990000  4.9870840256e-04  4.9869840047e-04  1.000e-08
2.000000  4.8902663813e-04  4.8901502496e-04  1.161e-08
2.010000  4.7957765380e-04  4.7956464771e-04  1.301e-08
2.020000  4.7035479524e-04  4.7034063463e-04  1.416e-08
2.030000  4.6135162804e-04  4.6133656688e-04  1.506e-08
2.040000  4.5256192940e-04  4.5254623245e-04  1.570e-08
2.050000  4.4397968032e-04  4.4396361836e-04  1.606e-08
2.060000  4.3559905801e-04  4.3558290310e-04  1.615e-08
2.070000  4.2741442868e-04  4.2739844956e-04  1.598e-08
2.080000  4.1942034051e-04  4.1940479831e-04  1.554e-08
2.090000  4.1161151710e-04  4.1159666120e-04  1.486e-08
2.100000  4.0398285100e-04  4.0396891530e-04  1.394e-08
2.110000  3.9652939760e-04  3.9651659717e-04  1.280e-08
2.120000  3.8924636926e-04  3.8923489740e-04  1.147e-08
2.130000  3.8212912965e-04  3.8211915538e-04  9.974e-09
2.140000  3.7517318836e-04  3.7516485439e-04  8.334e-09
2.150000  3.6837419565e-04  3.6836761684e-04  6.579e-09
2.160000  3.6172793748e-04  3.6172319980e-04  4.738e-09
2.170000  3.5523033074e-04  3.5522749065e-04  2.840e-09
2.180000  3.4887741858e-04  3.4887650295e-04  9.156e-10
2.190000  3.4266536605e-04  3.4266637247e-04  -1.006e-09
2.200000  3.3659045578e-04  3.3659335336e-04  -2.898e-09
2.210000  3.3064908395e-04  3.3065381445e-04  -4.731e-09
2.220000  3.2483775631e-04  3.2484423572e-04  -6.479e-09
2.230000  3.1915308445e-04  3.1916120478e-04  -8.120e-09
2.240000  3.1359178213e-04  3.1360141361e-04  -9.631e-09
2.250000  3.0815066180e-04  3.0816165523e-04  -1.099e-08
2.260000  3.0282663123e-04  3.0283882058e-04  -1.219e-08
2.270000  2.9761669031e-04  2.9762989547e-04  -1.321e-08
2.280000  2.9251792789e-04  2.9253195751e-04  -1.403e-08
2.290000  2.8752751883e-04  2.8754217323e-04  -1.465e-08
2.300000  2.8264272110e-04  2.8265779522e-04  -1.507e-08
2.310000  2.7786087300e-04  2.7787615933e-04  -1.529e-08
2.320000  2.7317939051e-04  2.7319468192e-04  -1.529e-08
2.330000  2.6859576470e-04  2.6861085723e-04  -1.509e-08
2.340000  2.6410755928e-04  2.6412225478e-04  -1.470e-08
2.350000  2.5971240816e-04  2.5972651678e-04  -1.411e-08
2.360000  2.5540801325e-04  2.5542135568e-04  -1.334e-08
2.370000  2.5119214214e-04  2.5120455178e-04  -1.241e-08
2.380000  2.4706262603e-04  2.4707395078e-04  -1.132e-08
2.390000  2.4301735768e-04  2.4302746159e-04  -1.010e-08
2.400000  2.3905428938e-04  2.3906305399e-04  -8.765e-09
2.410000  2.3517143108e-04  2.3517875655e-04  -7.325e-09
2.420000  2.3136684856e-04  2.3137265446e-04  -5.806e-09
2.430000  2.2763866158e-04  2.2764288750e-04  -4.226e-09
2.440000  2.2398504228e-04  2.2398764809e-04  -2.606e-09
2.450000  2.2040421343e-04  2.2040517934e-04  -9.659e-10
2.460000  2.1689444687e-04  2.1689377325e-04  6.736e-10
2.470000  2.1345406199e-04  2.1345176888e-04  2.293e-09
2.480000  2.1008142424e-04  2.1007755069e-04  3.874e-09
2.490000  2.0677494366e-04  2.0676954689e-04  5.397e-09
2.500000  2.0353307356e-04  2.0352622786e-04  6.846e-09
2.510000  2.0035430912e-04  2.0034610464e-04  8.204e-09
2.520000  1.9723718615e-04  1.9722772750e-04  9.459e-09
2.530000  1.9418027985e-04  1.9416968455e-04  1.060e-08
2.540000  1.9118220354e-04  1.9117060049e-04  1.160e-08
2.550000  1.8824160758e-04  1.8822913528e-04  1.247e-08
2.560000  1.8535717821e-04  1.8534398303e-04  1.320e-08
2.570000  1.8252763647e-04  1.8251387083e-04  1.377e-08
2.580000  1.7975173716e-04  1.7973755770e-04  1.418e-08
2.590000  1.7702826781e-04  1.7701383361e-04  1.443e-08
2.600000  1.7435604773e-04  1.7434151847e-04  1.453e-08
2.610000  1.7173392705e-04  1.7171946128e-04  1.447e-08
2.620000  1.6916078580e-04  1.6914653923e-04  1.425e-08
2.630000  1.6663553305e-04  1.6662165695e-04  1.388e-08
2.640000  1.6415710601e-04  1.6414374568e-04  1.336e-08
2.650000  1.6172446927e-04  1.6171176259e-04  1.271e-08
2.660000  1.5933661394e-04  1.5932469011e-04  1.192e-08
2.670000  1.5699255692e-04  1.5698153523e-04  1.102e-08
2.680000  1.5469134010e-04  1.5468132894e-04  1.001e-08
2.690000  1.5243202972e-04  1.5242312561e-04  8.904e-09
2.700000  1.5021371559e-04  1.5020600246e-04  7.713e-09
2.710000  1.4803551044e-04  1.4802905902e-04  6.451e-09
2.720000  1.4589654929e-04  1.4589141663e-04  5.133e-09
2.730000  1.4379598877e-04  1.4379221794e-04  3.771e-09
2.740000  1.4173300654e-04  1.4173062646e-04  2.380e-09
2.750000  1.3970680068e-04  1.3970582610e-04  9.746e-10
2.760000  1.3771658912e-04  1.3771702075e-04  -4.316e-10
2.770000  1.3576160907e-04  1.3576343384e-04  -1.825e-09
2.780000  1.3384111650e-04  1.3384430792e-04  -3.191e-09
2.790000  1.3195438559e-04  1.3195890430e-04  -4.519e-09
2.800000  1.3010070826e-04  1.3010650259e-04  -5.794e-09
2.810000  1.2827939363e-04  1.2828640039e-04  -7.007e-09
2.820000  1.2648976758e-04  1.2649791281e-04  -8.145e-09
2.830000  1.2473117229e-04  1.2474037219e-04  -9.200e-09
2.840000  1.2300296577e-04  1.2301312765e-04  -1.016e-08
2.850000  1.2130452144e-04  1.2131554475e-04  -1.102e-08
2.860000  1.1963522770e-04  1.1964700513e-04  -1.178e-08
2.870000  1.1799448754e-04  1.1800690608e-04  -1.242e-08
2.880000  1.1638171814e-04  1.1639466026e-04  -1.294e-08
2.890000  1.1479635046e-04  1.1480969525e-04  -1.334e-08
2.900000  1.1323782892e-04  1.1325145322e-04  -1.362e-08
2.910000  1.1170561099e-04  1.1171939058e-04  -1.378e-08
2.920000  1.1019916686e-04  1.1021297756e-04  -1.381e-08
2.930000  1.0871797911e-04  1.0873169791e-04  -1.372e-08
2.940000  1.0726154237e-04  1.0727504847e-04  -1.351e-08
2.950000  1.0582936301e-04  1.0584253887e-04  -1.318e-08
2.960000  1.0442095882e-04  1.0443369110e-04  -1.273e-08
2.970000  1.0303585870e-04  1.0304803923e-04  -1.218e-08
2.980000  1.0167360241e-04  1.0168512897e-04  -1.153e-08
2.990000  1.0033374023e-04  1.0034451740e-04  -1.078e-08
3.000000  9.9015832738e-05  9.9025772536e-05  -9.940e-09
3.010000  9.7719450497e-05  9.7728473052e-05  -9.023e-09
3.020000  9.6444173834e-05  9.6452207905e-05  -8.034e-09
3.030000  9.5189592567e-05  9.5196576004e-05  -6.983e-09
3.040000  9.3955305766e-05  9.3961185884e-05  -5.880e-09
3.050000  9.2740921516e-05  9.2745655380e-05  -4.734e-09
3.060000  9.1546056689e-05  9.1549611309e-05  -3.555e-09
3.070000  9.0370336712e-05  9.0372689159e-05  -2.352e-09
3.080000  8.9213395361e-05  8.9214532791e-05  -1.137e-09
3.090000  8.8074874540e-05  8.8074794140e-05  8.040e-11
3.100000  8.6954424080e-05  8.6953132935e-05  1.291e-09
3.110000  8.5851701540e-05  8.5849216418e-05  2.485e-09
3.120000  8.4766372012e-05  8.4762719078e-05  3.653e-09
3.130000  8.3698107931e-05  8.3693322398e-05  4.786e-09
3.140000  8.2646588896e-05  8.2640714599e-05  5.874e-09
3.150000  8.1611501487e-05  8.1604590413e-05  6.911e-09
3.160000  8.0592539096e-05  8.0584650845e-05  7.888e-09
3.170000  7.9589401756e-05  7.9580602968e-05  8.799e-09
3.180000  7.8601795979e-05  7.8592159704e-05  9.636e-09
3.190000  7.7629434595e-05  7.7619039636e-05  1.039e-08
3.200000  7.6672036601e-05  7.6660966823e-05  1.107e-08
3.210000  7.5729327006e-05  7.5717670616e-05  1.166e-08
3.220000  7.4801036687e-05  7.4788885504e-05  1.215e-08
3.230000  7.3886902246e-05  7.3874350950e-05  1.255e-08
3.240000  7.2986665872e-05  7.2973811250e-05  1.285e-08
3.250000  7.2100075207e-05  7.2087015394e-05  1.306e-08
3.260000  7.1226883212e-05  7.1213716942e-05  1.317e-08
3.270000  7.0366848042e-05  7.0353673905e-05  1.317e-08
3.280000  6.9519732921e-05  6.9506648638e-05  1.308e-08
3.290000  6.8685306022e-05  6.8672407734e-05  1.290e-08
3.300000  6.7863340345e-05  6.7850721938e-05  1.262e-08
3.310000  6.7053613611e-05  6.7041366056e-05  1.225e-08
3.320000  6.6255908142e-05  6.6244118880e-05  1.179e-08
3.330000  6.5470010758e-05  6.5458763114e-05  1.125e-08
3.340000  6.4695712667e-05  6.4685085312e-05  1.063e-08
3.350000  6.3932809367e-05  6.3922875812e-05  9.934e-09
3.360000  6.3181100543e-05  6.3171928689e-05  9.172e-09
3.370000  6.2440389968e-05  6.2432041698e-05  8.348e-09
3.380000  6.1710485412e-05  6.1703016235e-05  7.469e-09
3.390000  6.0991198546e-05  6.0984657291e-05  6.541e-09
3.400000  6.0282344853e-05  6.0276773414e-05  5.571e-09
3.410000  5.9583743542e-05  5.9579176677e-05  4.567e-09
3.420000  5.8895217459e-05  5.8891682640e-05  3.535e-09
3.430000  5.8216593007e-05  5.8214110324e-05  2.483e-09
3.440000  5.7547700061e-05  5.7546282182e-05  1.418e-09
3.450000  5.6888371894e-05  5.6888024064e-05  3.478e-10
3.460000  5.6238445096e-05  5.6239165201e-05  -7.201e-10
3.470000  5.5597759499e-05  5.5599538170e-05  -1.779e-09
3.480000  5.4966158106e-05  5.4968978869e-05  -2.821e-09
3.490000  5.4343487017e-05  5.4347326497e-05  -3.839e-09
3.500000  5.3729595362e-05  5.3734423518e-05  -4.828e-09
3.510000  5.3124335232e-05  5.3130115641e-05  -5.780e-09
